#Frequency	Mic 1	Mic 2
10.000	0.654	0.192
11.000	0.127	0.032
12.000	0.120	0.030
13.000	0.146	0.031
14.000	0.155	0.033
15.000	0.175	0.036
16.000	0.159	0.033
17.000	0.163	0.030
18.000	0.160	0.029
19.000	0.175	0.035
20.000	0.190	0.035
21.000	0.224	0.033
22.000	0.244	0.035
23.000	0.253	0.034
24.000	0.280	0.043
25.000	0.327	0.044
26.000	0.353	0.045
27.000	0.403	0.045
28.000	0.443	0.053
29.000	0.498	0.047
30.000	0.581	0.057
31.000	0.646	0.058
32.000	0.761	0.069
33.000	0.846	0.070
34.000	0.983	0.086
35.000	1.132	0.083
36.000	1.289	0.097
37.000	1.520	0.113
38.000	1.706	0.132
39.000	1.891	0.141
40.000	2.122	0.160
41.000	2.205	0.173
42.000	2.253	0.182
43.000	2.224	0.179
44.000	2.128	0.178
45.000	1.943	0.178
46.000	1.802	0.163
47.000	1.670	0.156
48.000	1.485	0.154
49.000	1.393	0.138
50.000	1.274	0.133
51.000	1.194	0.130
52.000	1.123	0.127
53.000	1.054	0.124
54.000	0.983	0.117
55.000	0.928	0.118
56.000	0.894	0.117
57.000	0.841	0.117
58.000	0.810	0.116
59.000	0.774	0.114
60.000	0.760	0.116
61.000	0.720	0.117
62.000	0.680	0.119
63.000	0.652	0.113
64.000	0.630	0.116
65.000	0.601	0.112
66.000	0.571	0.115
67.000	0.544	0.115
68.000	0.532	0.121
69.000	0.508	0.125
70.000	0.471	0.122
71.000	0.425	0.122
72.000	0.374	0.121
73.000	0.337	0.115
74.000	0.301	0.115
75.000	0.283	0.112
76.000	0.246	0.118
77.000	0.221	0.110
78.000	0.199	0.115
79.000	0.180	0.108
80.000	0.163	0.111
81.000	0.156	0.117
82.000	0.131	0.111
83.000	0.113	0.116
84.000	0.119	0.118
85.000	0.130	0.119
86.000	0.141	0.119
87.000	0.161	0.122
88.000	0.181	0.126
89.000	0.212	0.122
90.000	0.241	0.127
91.000	0.273	0.133
92.000	0.298	0.132
93.000	0.323	0.135
94.000	0.362	0.145
95.000	0.386	0.140
96.000	0.415	0.144
97.000	0.454	0.149
98.000	0.471	0.148
99.000	0.514	0.146
100.000	0.576	0.157
101.000	0.630	0.159
102.000	0.696	0.176
103.000	0.749	0.187
104.000	0.814	0.189
105.000	0.886	0.197
106.000	0.930	0.208
107.000	1.006	0.219
108.000	1.103	0.228
109.000	1.168	0.241
110.000	1.269	0.253
111.000	1.378	0.265
112.000	1.461	0.279
113.000	1.629	0.300
114.000	1.753	0.325
115.000	1.890	0.337
116.000	2.094	0.378
117.000	2.249	0.397
118.000	2.506	0.440
119.000	2.730	0.469
120.000	2.961	0.505
121.000	3.268	0.559
122.000	3.497	0.601
123.000	3.698	0.634
124.000	3.873	0.668
125.000	3.912	0.689
126.000	3.890	0.700
127.000	3.821	0.692
128.000	3.625	0.671
129.000	3.412	0.632
130.000	3.153	0.592
131.000	2.921	0.561
132.000	2.686	0.516
133.000	2.465	0.486
134.000	2.252	0.452
135.000	2.064	0.419
136.000	1.926	0.401
137.000	1.768	0.378
138.000	1.663	0.363
139.000	1.561	0.346
140.000	1.454	0.332
141.000	1.367	0.324
142.000	1.302	0.313
143.000	1.215	0.303
144.000	1.153	0.291
145.000	1.088	0.286
146.000	1.029	0.277
147.000	0.980	0.272
148.000	0.915	0.272
149.000	0.866	0.259
150.000	0.825	0.267
151.000	0.787	0.264
152.000	0.749	0.266
153.000	0.706	0.267
154.000	0.645	0.264
155.000	0.601	0.255
156.000	0.550	0.253
157.000	0.492	0.245
158.000	0.451	0.238
159.000	0.409	0.238
160.000	0.375	0.235
161.000	0.343	0.230
162.000	0.311	0.229
163.000	0.286	0.230
164.000	0.259	0.229
165.000	0.232	0.229
166.000	0.221	0.227
167.000	0.204	0.230
168.000	0.187	0.230
169.000	0.187	0.236
170.000	0.200	0.238
171.000	0.218	0.233
172.000	0.232	0.237
173.000	0.263	0.244
174.000	0.284	0.245
175.000	0.320	0.249
176.000	0.345	0.250
177.000	0.378	0.253
178.000	0.425	0.268
179.000	0.462	0.267
180.000	0.502	0.262
181.000	0.512	0.264
182.000	0.542	0.260
183.000	0.573	0.258
184.000	0.639	0.267
185.000	0.674	0.273
186.000	0.729	0.281
187.000	0.796	0.298
188.000	0.850	0.305
189.000	0.933	0.323
190.000	0.987	0.333
191.000	1.064	0.342
192.000	1.163	0.363
193.000	1.239	0.376
194.000	1.335	0.400
195.000	1.434	0.419
196.000	1.537	0.445
197.000	1.668	0.467
198.000	1.782	0.490
199.000	1.925	0.520
200.000	2.086	0.561
201.000	2.252	0.589
202.000	2.412	0.627
203.000	2.632	0.679
204.000	2.810	0.719
205.000	3.016	0.766
206.000	3.195	0.814
207.000	3.334	0.843
208.000	3.454	0.880
209.000	3.492	0.896
210.000	3.484	0.904
211.000	3.434	0.896
212.000	3.331	0.874
213.000	3.218	0.848
214.000	3.012	0.815
215.000	2.848	0.763
216.000	2.674	0.727
217.000	2.479	0.678
218.000	2.309	0.646
219.000	2.159	0.599
220.000	2.026	0.575
221.000	1.894	0.550
222.000	1.768	0.522
223.000	1.668	0.497
224.000	1.557	0.477
225.000	1.482	0.465
226.000	1.392	0.446
227.000	1.319	0.430
228.000	1.236	0.415
229.000	1.193	0.412
230.000	1.121	0.396
231.000	1.058	0.398
232.000	0.994	0.390
233.000	0.946	0.376
234.000	0.882	0.370
235.000	0.823	0.357
236.000	0.773	0.349
237.000	0.727	0.341
238.000	0.663	0.335
239.000	0.631	0.325
240.000	0.596	0.322
241.000	0.557	0.322
242.000	0.513	0.316
243.000	0.482	0.312
244.000	0.450	0.312
245.000	0.424	0.304
246.000	0.401	0.308
247.000	0.356	0.304
248.000	0.343	0.302
249.000	0.301	0.305
250.000	0.273	0.300
251.000	0.254	0.303
252.000	0.226	0.300
253.000	0.231	0.297
254.000	0.255	0.301
255.000	0.277	0.303
256.000	0.302	0.294
257.000	0.304	0.297
258.000	0.326	0.296
259.000	0.340	0.297
260.000	0.347	0.305
261.000	0.377	0.309
262.000	0.400	0.318
263.000	0.422	0.325
264.000	0.452	0.332
265.000	0.506	0.332
266.000	0.545	0.344
267.000	0.587	0.355
268.000	0.649	0.367
269.000	0.682	0.372
270.000	0.743	0.380
271.000	0.813	0.394
272.000	0.851	0.414
273.000	0.931	0.423
274.000	0.998	0.432
275.000	1.055	0.451
276.000	1.122	0.470
277.000	1.186	0.497
278.000	1.277	0.518
279.000	1.355	0.551
280.000	1.449	0.571
281.000	1.568	0.600
282.000	1.687	0.625
283.000	1.802	0.655
284.000	1.963	0.694
285.000	2.086	0.730
286.000	2.242	0.767
287.000	2.423	0.819
288.000	2.556	0.852
289.000	2.721	0.901
290.000	2.864	0.941
291.000	2.983	0.976
292.000	3.084	0.999
293.000	3.139	1.016
294.000	3.153	1.022
295.000	3.132	1.019
296.000	3.082	0.999
297.000	2.976	0.975
298.000	2.849	0.942
299.000	2.745	0.904
300.000	2.661	0.989
301.000	2.543	0.881
302.000	2.279	0.818
303.000	2.179	0.831
304.000	2.054	0.747
305.000	1.939	0.758
306.000	1.802	0.655
307.000	1.690	0.632
308.000	1.562	0.582
309.000	1.498	0.557
310.000	1.472	0.555
311.000	1.376	0.598
312.000	1.288	0.546
313.000	1.245	0.592
314.000	1.167	0.493
315.000	1.113	0.523
316.000	1.016	0.453
317.000	0.972	0.446
318.000	0.943	0.436
319.000	0.981	0.490
320.000	0.820	0.416
321.000	0.816	0.463
322.000	0.746	0.410
323.000	0.696	0.394
324.000	0.670	0.390
325.000	0.614	0.385
326.000	0.586	0.382
327.000	0.543	0.375
328.000	0.510	0.381
329.000	0.476	0.375
330.000	0.447	0.367
331.000	0.419	0.369
332.000	0.402	0.372
333.000	0.375	0.368
334.000	0.375	0.364
335.000	0.350	0.367
336.000	0.330	0.365
337.000	0.319	0.367
338.000	0.314	0.372
339.000	0.303	0.375
340.000	0.312	0.375
341.000	0.343	0.402
342.000	0.330	0.385
343.000	0.345	0.385
344.000	0.381	0.442
345.000	0.387	0.392
346.000	0.412	0.393
347.000	0.428	0.402
348.000	0.466	0.415
349.000	0.495	0.414
350.000	0.534	0.430
351.000	0.575	0.428
352.000	0.609	0.441
353.000	0.677	0.492
354.000	0.706	0.476
355.000	0.766	0.478
356.000	0.803	0.488
357.000	0.863	0.508
358.000	0.935	0.521
359.000	0.980	0.536
360.000	1.096	0.568
361.000	1.142	0.589
362.000	1.217	0.607
363.000	1.292	0.643
364.000	1.381	0.657
365.000	1.500	0.694
366.000	1.594	0.728
367.000	1.689	0.753
368.000	1.820	0.780
369.000	1.919	0.820
370.000	2.048	0.849
371.000	2.167	0.893
372.000	2.297	0.929
373.000	2.420	0.971
374.000	2.516	0.994
375.000	2.603	1.024
376.000	2.646	1.037
377.000	2.686	1.052
378.000	2.696	1.073
379.000	2.670	1.054
380.000	2.642	1.024
381.000	2.581	0.998
382.000	2.498	0.968
383.000	2.394	0.939
384.000	2.272	0.892
385.000	2.163	0.855
386.000	2.078	0.822
387.000	1.964	0.788
388.000	1.873	0.745
389.000	1.782	0.722
390.000	1.681	0.684
391.000	1.597	0.662
392.000	1.508	0.634
393.000	1.442	0.613
394.000	1.368	0.592
395.000	1.307	0.573
396.000	1.249	0.561
397.000	1.185	0.540
398.000	1.115	0.531
399.000	1.068	0.512
400.000	1.027	0.502
401.000	0.958	0.486
402.000	0.919	0.481
403.000	0.872	0.470
404.000	0.829	0.461
405.000	0.797	0.457
406.000	0.742	0.448
407.000	0.717	0.443
408.000	0.690	0.434
409.000	0.635	0.429
410.000	0.614	0.432
411.000	0.578	0.422
412.000	0.552	0.424
413.000	0.519	0.414
414.000	0.479	0.417
415.000	0.458	0.414
416.000	0.445	0.411
417.000	0.424	0.412
418.000	0.398	0.409
419.000	0.370	0.412
420.000	0.359	0.410
421.000	0.338	0.414
422.000	0.335	0.415
423.000	0.330	0.414
424.000	0.333	0.419
425.000	0.329	0.428
426.000	0.340	0.427
427.000	0.355	0.431
428.000	0.366	0.433
429.000	0.397	0.438
430.000	0.422	0.444
431.000	0.442	0.445
432.000	0.476	0.452
433.000	0.512	0.461
434.000	0.544	0.473
435.000	0.579	0.481
436.000	0.624	0.491
437.000	0.651	0.505
438.000	0.698	0.517
439.000	0.747	0.536
440.000	0.800	0.541
441.000	0.862	0.564
442.000	0.916	0.582
443.000	0.965	0.597
444.000	1.049	0.620
445.000	1.121	0.641
446.000	1.182	0.669
447.000	1.270	0.696
448.000	1.340	0.721
449.000	1.454	0.763
450.000	1.532	0.791
451.000	1.623	0.826
452.000	1.730	0.857
453.000	1.839	0.891
454.000	1.939	0.925
455.000	2.052	0.967
456.000	2.149	0.997
457.000	2.230	1.027
458.000	2.308	1.046
459.000	2.372	1.068
460.000	2.408	1.075
461.000	2.424	1.078
462.000	2.440	1.075
463.000	2.408	1.065
464.000	2.363	1.046
465.000	2.311	1.021
466.000	2.240	0.991
467.000	2.172	0.951
468.000	2.069	0.914
469.000	2.002	0.882
470.000	1.902	0.849
471.000	1.811	0.812
472.000	1.728	0.783
473.000	1.660	0.754
474.000	1.573	0.722
475.000	1.500	0.699
476.000	1.421	0.671
477.000	1.365	0.656
478.000	1.306	0.628
479.000	1.231	0.609
480.000	1.204	0.593
481.000	1.129	0.580
482.000	1.082	0.562
483.000	1.024	0.552
484.000	0.979	0.535
485.000	0.946	0.529
486.000	0.904	0.528
487.000	0.851	0.503
488.000	0.821	0.491
489.000	0.784	0.488
490.000	0.748	0.475
491.000	0.718	0.466
492.000	0.682	0.464
493.000	0.631	0.453
494.000	0.617	0.448
495.000	0.577	0.451
496.000	0.548	0.445
497.000	0.514	0.440
498.000	0.496	0.444
499.000	0.475	0.446
500.000	0.450	0.447
501.000	0.434	0.444
502.000	0.420	0.450
503.000	0.409	0.445
504.000	0.400	0.451
505.000	0.402	0.454
506.000	0.384	0.454
507.000	0.389	0.451
508.000	0.388	0.457
509.000	0.396	0.466
510.000	0.406	0.469
511.000	0.411	0.471
512.000	0.420	0.482
513.000	0.439	0.489
514.000	0.467	0.498
515.000	0.491	0.507
516.000	0.513	0.517
517.000	0.553	0.531
518.000	0.572	0.541
519.000	0.612	0.551
520.000	0.670	0.570
521.000	0.706	0.579
522.000	0.746	0.595
523.000	0.814	0.611
524.000	0.840	0.621
525.000	0.904	0.643
526.000	0.966	0.665
527.000	1.029	0.685
528.000	1.095	0.711
529.000	1.167	0.728
530.000	1.226	0.754
531.000	1.312	0.786
532.000	1.403	0.818
533.000	1.507	0.859
534.000	1.570	0.873
535.000	1.655	0.902
536.000	1.738	0.936
537.000	1.811	0.963
538.000	1.899	0.991
539.000	1.974	1.007
540.000	2.058	1.034
541.000	2.089	1.043
542.000	2.135	1.053
543.000	2.134	1.050
544.000	2.143	1.043
545.000	2.132	1.024
546.000	2.101	1.011
547.000	2.050	0.981
548.000	2.007	0.962
549.000	1.954	0.938
550.000	1.883	0.902
551.000	1.801	0.866
552.000	1.740	0.830
553.000	1.668	0.808
554.000	1.611	0.785
555.000	1.521	0.742
556.000	1.480	0.755
557.000	1.409	0.699
558.000	1.337	0.673
559.000	1.278	0.649
560.000	1.225	0.633
561.000	1.172	0.612
562.000	1.132	0.596
563.000	1.071	0.579
564.000	1.029	0.571
565.000	1.001	0.555
566.000	0.957	0.543
567.000	0.909	0.529
568.000	0.901	0.524
569.000	0.851	0.512
570.000	0.825	0.499
571.000	0.799	0.500
572.000	0.784	0.488
573.000	0.761	0.483
574.000	0.738	0.474
575.000	0.745	0.486
576.000	0.751	0.463
577.000	0.681	0.468
578.000	0.680	0.460
579.000	0.662	0.456
580.000	0.651	0.461
581.000	0.636	0.448
582.000	0.622	0.451
583.000	0.611	0.454
584.000	0.621	0.451
585.000	0.612	0.446
586.000	0.592	0.444
587.000	0.600	0.464
588.000	0.565	0.444
589.000	0.564	0.450
590.000	0.558	0.447
591.000	0.571	0.479
592.000	0.577	0.456
593.000	0.615	0.460
594.000	0.652	0.470
595.000	0.694	0.481
596.000	0.746	0.498
597.000	0.767	0.511
598.000	0.786	0.525
599.000	0.785	0.545
600.000	0.827	0.545
601.000	0.868	0.560
602.000	0.921	0.578
603.000	0.949	0.587
604.000	0.995	0.608
605.000	1.054	0.630
606.000	1.083	0.641
607.000	1.148	0.672
608.000	1.187	0.696
609.000	1.251	0.723
610.000	1.304	0.746
611.000	1.348	0.774
612.000	1.423	0.813
613.000	1.495	0.841
614.000	1.553	0.893
615.000	1.638	0.916
616.000	1.710	0.950
617.000	1.765	0.968
618.000	1.842	1.000
619.000	1.893	1.013
620.000	1.952	1.030
621.000	1.984	1.038
622.000	2.046	1.052
623.000	2.024	1.040
624.000	2.030	1.036
625.000	2.012	1.019
626.000	1.994	1.002
627.000	1.952	0.979
628.000	1.923	0.957
629.000	1.856	0.934
630.000	1.807	0.903
631.000	1.743	0.878
632.000	1.678	0.849
633.000	1.618	0.829
634.000	1.563	0.799
635.000	1.503	0.772
636.000	1.458	0.755
637.000	1.383	0.726
638.000	1.333	0.710
639.000	1.274	0.686
640.000	1.236	0.665
641.000	1.178	0.652
642.000	1.126	0.632
643.000	1.091	0.619
644.000	1.042	0.612
645.000	0.994	0.600
646.000	0.962	0.585
647.000	0.914	0.574
648.000	0.882	0.567
649.000	0.856	0.557
650.000	0.809	0.551
651.000	0.768	0.540
652.000	0.749	0.537
653.000	0.699	0.540
654.000	0.682	0.527
655.000	0.647	0.521
656.000	0.613	0.518
657.000	0.597	0.519
658.000	0.572	0.515
659.000	0.539	0.516
660.000	0.529	0.513
661.000	0.507	0.512
662.000	0.490	0.512
663.000	0.479	0.513
664.000	0.465	0.516
665.000	0.463	0.522
666.000	0.455	0.530
667.000	0.462	0.524
668.000	0.461	0.529
669.000	0.465	0.539
670.000	0.490	0.543
671.000	0.500	0.548
672.000	0.515	0.552
673.000	0.542	0.562
674.000	0.567	0.571
675.000	0.601	0.586
676.000	0.627	0.596
677.000	0.675	0.604
678.000	0.704	0.614
679.000	0.755	0.629
680.000	0.820	0.645
681.000	0.856	0.663
682.000	0.911	0.678
683.000	0.965	0.700
684.000	1.021	0.716
685.000	1.093	0.742
686.000	1.158	0.759
687.000	1.232	0.782
688.000	1.304	0.814
689.000	1.379	0.838
690.000	1.438	0.859
691.000	1.529	0.884
692.000	1.583	0.906
693.000	1.659	0.932
694.000	1.727	0.946
695.000	1.784	0.962
696.000	1.841	0.975
697.000	1.872	0.981
698.000	1.909	0.988
699.000	1.929	0.985
700.000	1.927	0.977
701.000	1.928	0.968
702.000	1.894	0.950
703.000	1.863	0.934
704.000	1.812	0.910
705.000	1.784	0.886
706.000	1.740	0.871
707.000	1.683	0.841
708.000	1.634	0.817
709.000	1.577	0.796
710.000	1.506	0.767
711.000	1.457	0.744
712.000	1.400	0.731
713.000	1.344	0.699
714.000	1.293	0.681
715.000	1.241	0.664
716.000	1.199	0.647
717.000	1.156	0.633
718.000	1.114	0.615
719.000	1.066	0.601
720.000	1.015	0.593
721.000	0.973	0.581
722.000	0.940	0.570
723.000	0.883	0.559
724.000	0.853	0.547
725.000	0.818	0.542
726.000	0.779	0.540
727.000	0.765	0.535
728.000	0.739	0.556
729.000	0.698	0.530
730.000	0.671	0.532
731.000	0.631	0.515
732.000	0.614	0.512
733.000	0.589	0.516
734.000	0.573	0.514
735.000	0.565	0.512
736.000	0.541	0.514
737.000	0.530	0.515
738.000	0.527	0.513
739.000	0.525	0.516
740.000	0.536	0.520
741.000	0.535	0.528
742.000	0.559	0.531
743.000	0.563	0.540
744.000	0.595	0.540
745.000	0.613	0.551
746.000	0.641	0.560
747.000	0.677	0.566
748.000	0.725	0.587
749.000	0.795	0.626
750.000	0.844	0.644
751.000	0.888	0.674
752.000	0.932	0.658
753.000	1.019	0.675
754.000	1.045	0.689
755.000	1.103	0.714
756.000	1.176	0.717
757.000	1.244	0.708
758.000	1.298	0.730
759.000	1.389	0.746
760.000	1.456	0.768
761.000	1.542	0.790
762.000	1.599	0.799
763.000	1.668	0.810
764.000	1.718	0.825
765.000	1.773	0.835
766.000	1.810	0.843
767.000	1.850	0.839
768.000	1.851	0.838
769.000	1.874	0.827
770.000	1.875	0.824
771.000	1.852	0.805
772.000	1.813	0.789
773.000	1.789	0.772
774.000	1.767	0.753
775.000	1.689	0.731
776.000	1.655	0.717
777.000	1.604	0.688
778.000	1.546	0.666
779.000	1.489	0.650
780.000	1.419	0.626
781.000	1.373	0.613
782.000	1.326	0.594
783.000	1.254	0.578
784.000	1.209	0.564
785.000	1.169	0.554
786.000	1.128	0.547
787.000	1.088	0.559
788.000	1.029	0.515
789.000	0.988	0.504
790.000	0.952	0.494
791.000	0.892	0.500
792.000	0.861	0.482
793.000	0.828	0.480
794.000	0.800	0.483
795.000	0.771	0.470
796.000	0.739	0.458
797.000	0.707	0.454
798.000	0.692	0.454
799.000	0.672	0.455
800.000	0.659	0.456
801.000	0.651	0.450
802.000	0.654	0.450
803.000	0.660	0.451
804.000	0.677	0.452
805.000	0.691	0.453
806.000	0.718	0.456
807.000	0.741	0.465
808.000	0.777	0.466
809.000	0.818	0.472
810.000	0.860	0.473
811.000	0.913	0.486
812.000	0.984	0.491
813.000	1.049	0.501
814.000	1.105	0.503
815.000	1.160	0.513
816.000	1.249	0.525
817.000	1.308	0.532
818.000	1.388	0.541
819.000	1.468	0.558
820.000	1.519	0.561
821.000	1.605	0.564
822.000	1.662	0.577
823.000	1.715	0.580
824.000	1.784	0.575
825.000	1.806	0.572
826.000	1.839	0.567
827.000	1.858	0.564
828.000	1.855	0.554
829.000	1.869	0.550
830.000	1.850	0.537
831.000	1.820	0.522
832.000	1.790	0.512
833.000	1.753	0.501
834.000	1.713	0.487
835.000	1.664	0.472
836.000	1.608	0.465
837.000	1.556	0.442
838.000	1.506	0.432
839.000	1.468	0.423
840.000	1.426	0.409
841.000	1.377	0.402
842.000	1.339	0.390
843.000	1.302	0.382
844.000	1.293	0.375
845.000	1.260	0.367
846.000	1.271	0.356
847.000	1.285	0.352
848.000	1.301	0.345
849.000	1.324	0.341
850.000	1.361	0.335
851.000	1.419	0.323
852.000	1.480	0.320
853.000	1.559	0.314
854.000	1.642	0.304
855.000	1.715	0.298
856.000	1.833	0.298
857.000	1.903	0.285
858.000	1.985	0.275
859.000	2.079	0.266
860.000	2.158	0.252
861.000	2.228	0.245
862.000	2.277	0.229
863.000	2.341	0.228
864.000	2.373	0.209
865.000	2.403	0.197
866.000	2.428	0.191
867.000	2.434	0.176
868.000	2.429	0.168
869.000	2.431	0.158
870.000	2.415	0.147
871.000	2.398	0.142
872.000	2.371	0.131
873.000	2.345	0.125
874.000	2.326	0.116
875.000	2.305	0.112
876.000	2.271	0.107
877.000	2.264	0.107
878.000	2.243	0.103
879.000	2.203	0.090
880.000	2.181	0.094
881.000	2.154	0.082
882.000	2.129	0.081
883.000	2.106	0.079
884.000	2.077	0.075
885.000	2.066	0.068
886.000	2.053	0.066
887.000	2.021	0.064
888.000	2.000	0.062
889.000	1.976	0.066
890.000	1.944	0.065
891.000	1.941	0.061
892.000	1.917	0.065
893.000	1.894	0.057
894.000	1.881	0.053
895.000	1.868	0.054
896.000	1.863	0.057
897.000	1.826	0.052
898.000	1.825	0.048
899.000	1.814	0.050
900.000	1.794	0.048
901.000	1.775	0.045
902.000	1.768	0.047
903.000	1.747	0.049
904.000	1.732	0.050
905.000	1.724	0.044
906.000	1.701	0.042
907.000	1.702	0.043
908.000	1.673	0.043
909.000	1.670	0.040
910.000	1.663	0.041
911.000	1.644	0.043
912.000	1.637	0.036
913.000	1.622	0.043
914.000	1.613	0.038
915.000	1.606	0.038
916.000	1.600	0.042
917.000	1.608	0.044
918.000	1.580	0.033
919.000	1.566	0.039
920.000	1.554	0.039
921.000	1.539	0.039
922.000	1.536	0.036
923.000	1.522	0.033
924.000	1.508	0.034
925.000	1.507	0.035
926.000	1.513	0.034
927.000	1.493	0.035
928.000	1.479	0.036
929.000	1.475	0.036
930.000	1.462	0.036
931.000	1.457	0.037
932.000	1.443	0.031
933.000	1.446	0.032
934.000	1.425	0.040
935.000	1.422	0.039
936.000	1.425	0.035
937.000	1.424	0.035
938.000	1.407	0.034
939.000	1.396	0.036
940.000	1.393	0.033
941.000	1.394	0.034
942.000	1.377	0.036
943.000	1.366	0.037
944.000	1.356	0.033
945.000	1.362	0.033
946.000	1.345	0.033
947.000	1.341	0.035
948.000	1.332	0.035
949.000	1.333	0.036
950.000	1.325	0.031
951.000	1.322	0.032
952.000	1.315	0.031
953.000	1.309	0.033
954.000	1.301	0.038
955.000	1.302	0.038
956.000	1.291	0.034
957.000	1.279	0.032
958.000	1.284	0.032
959.000	1.270	0.038
960.000	1.263	0.033
961.000	1.260	0.031
962.000	1.258	0.035
963.000	1.254	0.031
964.000	1.252	0.037
965.000	1.244	0.033
966.000	1.244	0.033
967.000	1.229	0.035
968.000	1.227	0.032
969.000	1.230	0.032
970.000	1.219	0.032
971.000	1.203	0.035
972.000	1.207	0.032
973.000	1.208	0.034
974.000	1.196	0.039
975.000	1.196	0.035
976.000	1.195	0.033
977.000	1.192	0.032
978.000	1.177	0.035
979.000	1.170	0.033
980.000	1.178	0.036
981.000	1.168	0.038
982.000	1.164	0.036
983.000	1.157	0.034
984.000	1.149	0.037
985.000	1.166	0.033
986.000	1.142	0.037
987.000	1.131	0.031
988.000	1.134	0.030
989.000	1.130	0.030
990.000	1.129	0.031
991.000	1.133	0.035
992.000	1.111	0.039
993.000	1.128	0.060
994.000	1.130	0.049
995.000	1.111	0.034
996.000	1.105	0.033
997.000	1.101	0.031
998.000	1.096	0.041
999.000	1.104	0.030
1000.000	1.080	0.032
1001.000	1.080	0.035
1002.000	1.081	0.033
1003.000	1.084	0.032
1004.000	1.100	0.054
1005.000	1.077	0.035
1006.000	1.068	0.037
1007.000	1.062	0.034
1008.000	1.050	0.040
1009.000	1.057	0.034
1010.000	1.063	0.066
1011.000	1.060	0.037
